Enu[GeV] 0
11.336355 25.7064
14.31343 28.7914
18.019555 35.413
22.685205 45.4322
28.559015 53.5584
35.953649999999996 71.7509
45.263 83.0176
56.98274 92.7848
71.737075 102.425
90.31156 103.137
113.6953 113.581
143.1343 115.091
180.19555 115.355
226.85205000000002 111.642
285.59015 105.065
359.5365 96.7707
452.63 87.4845
569.8274 76.9763
717.37075 65.1566
903.1156000000001 51.3354
1136.953 37.632
1431.3429999999998 25.5325
1801.9555 14.9209
2268.5205 7.44773
2855.9015 3.2988
3595.365 1.1864
4526.3 0.1733
5698.274 0.00100507
