Enu[GeV] 0
11.336355 0.0703
14.31343 0.067
18.019555 0.10
22.685205 0.13
28.559015 0.16
35.953649999999996 0.22
45.263 0.27
56.98274 0.29
71.737075 0.32
90.31156 0.34
113.6953 0.38
143.1343 0.39
180.19555 0.391
226.85205000000002 0.38
285.59015 0.36
359.5365 0.33
452.63 0.30
569.8274 0.26
717.37075 0.22
903.1156000000001 0.17
1136.953 0.13
1431.3429999999998 0.09
1801.9555 0.05
2268.5205 0.03
2855.9015 0.01
3595.365 0.004
4526.3 0.0006
5698.274 3.2e-06
